Photon    Coherent Incoher. Photoel. Nuclear  Electron Tot. w/  Tot. wo/ 
Energy    Scatter. Scatter. Absorb.  Pr. Prd. Pr. Prd. Coherent Coherent 
1.000E-03 1.145E+01 4.340E-03 3.672E+03 0.000E+00 0.000E+00 3.684E+03 3.672E+03 
1.004E-03 1.144E+01 4.364E-03 3.646E+03 0.000E+00 0.000E+00 3.658E+03 3.646E+03 
1.007E-03 1.144E+01 4.387E-03 3.621E+03 0.000E+00 0.000E+00 3.632E+03 3.621E+03 
1.011E-03 1.144E+01 4.411E-03 3.596E+03 0.000E+00 0.000E+00 3.607E+03 3.596E+03 
1.015E-03 1.143E+01 4.434E-03 3.571E+03 0.000E+00 0.000E+00 3.582E+03 3.571E+03 
1.018E-03 1.143E+01 4.458E-03 3.546E+03 0.000E+00 0.000E+00 3.557E+03 3.546E+03 
1.022E-03 1.143E+01 4.482E-03 3.521E+03 0.000E+00 0.000E+00 3.532E+03 3.521E+03 
1.026E-03 1.142E+01 4.506E-03 3.496E+03 0.000E+00 0.000E+00 3.507E+03 3.496E+03 
1.030E-03 1.142E+01 4.530E-03 3.472E+03 0.000E+00 0.000E+00 3.483E+03 3.472E+03 
1.033E-03 1.142E+01 4.554E-03 3.447E+03 0.000E+00 0.000E+00 3.459E+03 3.447E+03 
1.037E-03 1.142E+01 4.578E-03 3.423E+03 0.000E+00 0.000E+00 3.434E+03 3.423E+03 
1.041E-03 1.141E+01 4.602E-03 3.399E+03 0.000E+00 0.000E+00 3.410E+03 3.399E+03 
1.045E-03 1.141E+01 4.627E-03 3.375E+03 0.000E+00 0.000E+00 3.386E+03 3.375E+03 
1.049E-03 1.141E+01 4.651E-03 3.351E+03 0.000E+00 0.000E+00 3.363E+03 3.351E+03 
1.052E-03 1.140E+01 4.676E-03 3.328E+03 0.000E+00 0.000E+00 3.339E+03 3.328E+03 
1.056E-03 1.140E+01 4.700E-03 3.304E+03 0.000E+00 0.000E+00 3.315E+03 3.304E+03 
1.060E-03 1.140E+01 4.725E-03 3.281E+03 0.000E+00 0.000E+00 3.292E+03 3.281E+03 
1.064E-03 1.139E+01 4.750E-03 3.258E+03 0.000E+00 0.000E+00 3.269E+03 3.258E+03 
1.068E-03 1.139E+01 4.775E-03 3.235E+03 0.000E+00 0.000E+00 3.246E+03 3.235E+03 
1.072E-03 1.139E+01 4.800E-03 3.212E+03 0.000E+00 0.000E+00 3.223E+03 3.212E+03 
1.076E-03 1.138E+01 4.825E-03 3.189E+03 0.000E+00 0.000E+00 3.200E+03 3.189E+03 
1.080E-03 1.138E+01 4.850E-03 3.166E+03 0.000E+00 0.000E+00 3.178E+03 3.166E+03 
1.084E-03 1.138E+01 4.875E-03 3.144E+03 0.000E+00 0.000E+00 3.155E+03 3.144E+03 
1.088E-03 1.137E+01 4.901E-03 3.122E+03 0.000E+00 0.000E+00 3.133E+03 3.122E+03 
1.092E-03 1.137E+01 4.926E-03 3.099E+03 0.000E+00 0.000E+00 3.111E+03 3.099E+03 
1.096E-03 1.136E+01 4.952E-03 3.077E+03 0.000E+00 0.000E+00 3.089E+03 3.077E+03 
1.100E-03 1.136E+01 4.978E-03 3.055E+03 0.000E+00 0.000E+00 3.067E+03 3.055E+03 
1.104E-03 1.136E+01 5.003E-03 3.034E+03 0.000E+00 0.000E+00 3.045E+03 3.034E+03 
1.108E-03 1.135E+01 5.029E-03 3.012E+03 0.000E+00 0.000E+00 3.023E+03 3.012E+03 
1.112E-03 1.135E+01 5.055E-03 2.991E+03 0.000E+00 0.000E+00 3.002E+03 2.991E+03 
1.116E-03 1.135E+01 5.081E-03 2.969E+03 0.000E+00 0.000E+00 2.981E+03 2.969E+03 
1.120E-03 1.134E+01 5.107E-03 2.948E+03 0.000E+00 0.000E+00 2.959E+03 2.948E+03 
1.124E-03 1.134E+01 5.134E-03 2.927E+03 0.000E+00 0.000E+00 2.938E+03 2.927E+03 
1.128E-03 1.134E+01 5.160E-03 2.906E+03 0.000E+00 0.000E+00 2.917E+03 2.906E+03 
1.132E-03 1.133E+01 5.187E-03 2.885E+03 0.000E+00 0.000E+00 2.897E+03 2.885E+03 
1.136E-03 1.133E+01 5.213E-03 2.865E+03 0.000E+00 0.000E+00 2.876E+03 2.865E+03 
1.141E-03 1.132E+01 5.240E-03 2.844E+03 0.000E+00 0.000E+00 2.855E+03 2.844E+03 
1.145E-03 1.132E+01 5.266E-03 2.824E+03 0.000E+00 0.000E+00 2.835E+03 2.824E+03 
1.149E-03 1.132E+01 5.293E-03 2.803E+03 0.000E+00 0.000E+00 2.815E+03 2.803E+03 
1.153E-03 1.131E+01 5.320E-03 2.783E+03 0.000E+00 0.000E+00 2.795E+03 2.783E+03 
1.157E-03 1.131E+01 5.347E-03 2.763E+03 0.000E+00 0.000E+00 2.775E+03 2.763E+03 
1.162E-03 1.130E+01 5.374E-03 2.743E+03 0.000E+00 0.000E+00 2.755E+03 2.743E+03 
1.166E-03 1.130E+01 5.402E-03 2.724E+03 0.000E+00 0.000E+00 2.735E+03 2.724E+03 
1.170E-03 1.130E+01 5.429E-03 2.704E+03 0.000E+00 0.000E+00 2.715E+03 2.704E+03 
1.174E-03 1.129E+01 5.456E-03 2.685E+03 0.000E+00 0.000E+00 2.696E+03 2.685E+03 
1.179E-03 1.129E+01 5.484E-03 2.665E+03 0.000E+00 0.000E+00 2.676E+03 2.665E+03 
1.183E-03 1.128E+01 5.511E-03 2.646E+03 0.000E+00 0.000E+00 2.657E+03 2.646E+03 
1.187E-03 1.128E+01 5.539E-03 2.627E+03 0.000E+00 0.000E+00 2.638E+03 2.627E+03 
1.192E-03 1.128E+01 5.567E-03 2.608E+03 0.000E+00 0.000E+00 2.619E+03 2.608E+03 
1.196E-03 1.127E+01 5.595E-03 2.589E+03 0.000E+00 0.000E+00 2.600E+03 2.589E+03 
1.200E-03 1.127E+01 5.623E-03 2.570E+03 0.000E+00 0.000E+00 2.581E+03 2.570E+03 
1.205E-03 1.126E+01 5.651E-03 2.552E+03 0.000E+00 0.000E+00 2.563E+03 2.552E+03 
1.209E-03 1.126E+01 5.679E-03 2.533E+03 0.000E+00 0.000E+00 2.544E+03 2.533E+03 
1.214E-03 1.126E+01 5.707E-03 2.515E+03 0.000E+00 0.000E+00 2.526E+03 2.515E+03 
1.218E-03 1.125E+01 5.736E-03 2.496E+03 0.000E+00 0.000E+00 2.508E+03 2.496E+03 
1.223E-03 1.125E+01 5.764E-03 2.478E+03 0.000E+00 0.000E+00 2.489E+03 2.478E+03 
1.227E-03 1.124E+01 5.793E-03 2.460E+03 0.000E+00 0.000E+00 2.471E+03 2.460E+03 
1.231E-03 1.124E+01 5.821E-03 2.442E+03 0.000E+00 0.000E+00 2.454E+03 2.442E+03 
1.236E-03 1.123E+01 5.850E-03 2.424E+03 0.000E+00 0.000E+00 2.436E+03 2.424E+03 
1.241E-03 1.123E+01 5.879E-03 2.407E+03 0.000E+00 0.000E+00 2.418E+03 2.407E+03 
1.245E-03 1.122E+01 5.908E-03 2.389E+03 0.000E+00 0.000E+00 2.400E+03 2.389E+03 
1.250E-03 1.122E+01 5.937E-03 2.372E+03 0.000E+00 0.000E+00 2.383E+03 2.372E+03 
1.254E-03 1.122E+01 5.966E-03 2.354E+03 0.000E+00 0.000E+00 2.366E+03 2.354E+03 
1.259E-03 1.121E+01 5.996E-03 2.337E+03 0.000E+00 0.000E+00 2.348E+03 2.337E+03 
1.263E-03 1.121E+01 6.025E-03 2.320E+03 0.000E+00 0.000E+00 2.331E+03 2.320E+03 
1.268E-03 1.120E+01 6.054E-03 2.303E+03 0.000E+00 0.000E+00 2.314E+03 2.303E+03 
1.273E-03 1.120E+01 6.084E-03 2.286E+03 0.000E+00 0.000E+00 2.297E+03 2.286E+03 
1.277E-03 1.119E+01 6.114E-03 2.269E+03 0.000E+00 0.000E+00 2.281E+03 2.269E+03 
1.282E-03 1.119E+01 6.143E-03 2.253E+03 0.000E+00 0.000E+00 2.264E+03 2.253E+03 
1.287E-03 1.118E+01 6.173E-03 2.236E+03 0.000E+00 0.000E+00 2.247E+03 2.236E+03 
1.291E-03 1.118E+01 6.203E-03 2.220E+03 0.000E+00 0.000E+00 2.231E+03 2.220E+03 
1.296E-03 1.117E+01 6.233E-03 2.203E+03 0.000E+00 0.000E+00 2.215E+03 2.203E+03 
1.301E-03 1.117E+01 6.263E-03 2.187E+03 0.000E+00 0.000E+00 2.198E+03 2.187E+03 
1.306E-03 1.116E+01 6.293E-03 2.171E+03 0.000E+00 0.000E+00 2.182E+03 2.171E+03 
1.310E-03 1.116E+01 6.324E-03 2.155E+03 0.000E+00 0.000E+00 2.166E+03 2.155E+03 
1.315E-03 1.115E+01 6.354E-03 2.139E+03 0.000E+00 0.000E+00 2.150E+03 2.139E+03 
1.320E-03 1.115E+01 6.385E-03 2.123E+03 0.000E+00 0.000E+00 2.135E+03 2.123E+03 
1.325E-03 1.114E+01 6.415E-03 2.108E+03 0.000E+00 0.000E+00 2.119E+03 2.108E+03 
1.330E-03 1.114E+01 6.446E-03 2.092E+03 0.000E+00 0.000E+00 2.103E+03 2.092E+03 
1.335E-03 1.113E+01 6.477E-03 2.077E+03 0.000E+00 0.000E+00 2.088E+03 2.077E+03 
1.339E-03 1.113E+01 6.508E-03 2.061E+03 0.000E+00 0.000E+00 2.072E+03 2.061E+03 
1.344E-03 1.113E+01 6.539E-03 2.046E+03 0.000E+00 0.000E+00 2.057E+03 2.046E+03 
1.349E-03 1.112E+01 6.570E-03 2.031E+03 0.000E+00 0.000E+00 2.042E+03 2.031E+03 
1.354E-03 1.111E+01 6.601E-03 2.016E+03 0.000E+00 0.000E+00 2.027E+03 2.016E+03 
1.359E-03 1.111E+01 6.632E-03 2.001E+03 0.000E+00 0.000E+00 2.012E+03 2.001E+03 
1.364E-03 1.110E+01 6.664E-03 1.986E+03 0.000E+00 0.000E+00 1.997E+03 1.986E+03 
1.369E-03 1.110E+01 6.695E-03 1.971E+03 0.000E+00 0.000E+00 1.982E+03 1.971E+03 
1.374E-03 1.109E+01 6.727E-03 1.956E+03 0.000E+00 0.000E+00 1.968E+03 1.956E+03 
1.379E-03 1.109E+01 6.759E-03 1.942E+03 0.000E+00 0.000E+00 1.953E+03 1.942E+03 
1.384E-03 1.108E+01 6.790E-03 1.927E+03 0.000E+00 0.000E+00 1.939E+03 1.927E+03 
1.389E-03 1.108E+01 6.822E-03 1.913E+03 0.000E+00 0.000E+00 1.924E+03 1.913E+03 
1.394E-03 1.107E+01 6.854E-03 1.899E+03 0.000E+00 0.000E+00 1.910E+03 1.899E+03 
1.399E-03 1.107E+01 6.886E-03 1.885E+03 0.000E+00 0.000E+00 1.896E+03 1.885E+03 
1.405E-03 1.106E+01 6.919E-03 1.870E+03 0.000E+00 0.000E+00 1.882E+03 1.871E+03 
1.410E-03 1.106E+01 6.951E-03 1.857E+03 0.000E+00 0.000E+00 1.868E+03 1.857E+03 
1.415E-03 1.105E+01 6.983E-03 1.843E+03 0.000E+00 0.000E+00 1.854E+03 1.843E+03 
1.420E-03 1.105E+01 7.016E-03 1.829E+03 0.000E+00 0.000E+00 1.840E+03 1.829E+03 
1.425E-03 1.104E+01 7.048E-03 1.815E+03 0.000E+00 0.000E+00 1.826E+03 1.815E+03 
1.430E-03 1.104E+01 7.081E-03 1.801E+03 0.000E+00 0.000E+00 1.813E+03 1.801E+03 
1.436E-03 1.103E+01 7.114E-03 1.788E+03 0.000E+00 0.000E+00 1.799E+03 1.788E+03 
1.441E-03 1.103E+01 7.147E-03 1.775E+03 0.000E+00 0.000E+00 1.786E+03 1.775E+03 
1.446E-03 1.102E+01 7.180E-03 1.761E+03 0.000E+00 0.000E+00 1.772E+03 1.761E+03 
1.451E-03 1.101E+01 7.213E-03 1.748E+03 0.000E+00 0.000E+00 1.759E+03 1.748E+03 
1.457E-03 1.101E+01 7.246E-03 1.735E+03 0.000E+00 0.000E+00 1.746E+03 1.735E+03 
1.462E-03 1.100E+01 7.279E-03 1.722E+03 0.000E+00 0.000E+00 1.733E+03 1.722E+03 
1.467E-03 1.100E+01 7.312E-03 1.709E+03 0.000E+00 0.000E+00 1.720E+03 1.709E+03 
1.473E-03 1.099E+01 7.346E-03 1.696E+03 0.000E+00 0.000E+00 1.707E+03 1.696E+03 
1.478E-03 1.099E+01 7.379E-03 1.683E+03 0.000E+00 0.000E+00 1.694E+03 1.683E+03 
1.484E-03 1.098E+01 7.413E-03 1.670E+03 0.000E+00 0.000E+00 1.681E+03 1.670E+03 
1.489E-03 1.098E+01 7.447E-03 1.658E+03 0.000E+00 0.000E+00 1.669E+03 1.658E+03 
1.495E-03 1.097E+01 7.481E-03 1.645E+03 0.000E+00 0.000E+00 1.656E+03 1.645E+03 
1.500E-03 1.096E+01 7.515E-03 1.633E+03 0.000E+00 0.000E+00 1.644E+03 1.633E+03 
1.506E-03 1.096E+01 7.549E-03 1.620E+03 0.000E+00 0.000E+00 1.631E+03 1.620E+03 
1.511E-03 1.095E+01 7.583E-03 1.608E+03 0.000E+00 0.000E+00 1.619E+03 1.608E+03 
1.517E-03 1.095E+01 7.618E-03 1.596E+03 0.000E+00 0.000E+00 1.607E+03 1.596E+03 
1.522E-03 1.094E+01 7.652E-03 1.583E+03 0.000E+00 0.000E+00 1.594E+03 1.583E+03 
1.528E-03 1.093E+01 7.687E-03 1.571E+03 0.000E+00 0.000E+00 1.582E+03 1.571E+03 
1.533E-03 1.093E+01 7.721E-03 1.559E+03 0.000E+00 0.000E+00 1.570E+03 1.559E+03 
1.539E-03 1.092E+01 7.756E-03 1.547E+03 0.000E+00 0.000E+00 1.558E+03 1.547E+03 
1.545E-03 1.092E+01 7.791E-03 1.535E+03 0.000E+00 0.000E+00 1.546E+03 1.535E+03 
1.550E-03 1.091E+01 7.826E-03 1.524E+03 0.000E+00 0.000E+00 1.535E+03 1.524E+03 
1.556E-03 1.091E+01 7.861E-03 1.512E+03 0.000E+00 0.000E+00 1.523E+03 1.512E+03 
1.562E-03 1.090E+01 7.896E-03 1.500E+03 0.000E+00 0.000E+00 1.511E+03 1.500E+03 
1.568E-03 1.089E+01 7.932E-03 1.489E+03 0.000E+00 0.000E+00 1.500E+03 1.489E+03 
1.573E-03 1.089E+01 7.967E-03 1.477E+03 0.000E+00 0.000E+00 1.488E+03 1.477E+03 
1.579E-03 1.088E+01 8.003E-03 1.466E+03 0.000E+00 0.000E+00 1.477E+03 1.466E+03 
1.585E-03 1.087E+01 8.038E-03 1.455E+03 0.000E+00 0.000E+00 1.466E+03 1.455E+03 
1.591E-03 1.087E+01 8.074E-03 1.444E+03 0.000E+00 0.000E+00 1.454E+03 1.444E+03 
1.597E-03 1.086E+01 8.110E-03 1.432E+03 0.000E+00 0.000E+00 1.443E+03 1.432E+03 
1.603E-03 1.086E+01 8.145E-03 1.421E+03 0.000E+00 0.000E+00 1.432E+03 1.421E+03 
1.608E-03 1.085E+01 8.181E-03 1.410E+03 0.000E+00 0.000E+00 1.421E+03 1.410E+03 
1.614E-03 1.084E+01 8.217E-03 1.399E+03 0.000E+00 0.000E+00 1.410E+03 1.400E+03 
1.620E-03 1.084E+01 8.254E-03 1.389E+03 0.000E+00 0.000E+00 1.400E+03 1.389E+03 
1.626E-03 1.083E+01 8.290E-03 1.378E+03 0.000E+00 0.000E+00 1.389E+03 1.378E+03 
1.632E-03 1.083E+01 8.326E-03 1.367E+03 0.000E+00 0.000E+00 1.378E+03 1.367E+03 
1.638E-03 1.082E+01 8.363E-03 1.357E+03 0.000E+00 0.000E+00 1.367E+03 1.357E+03 
1.644E-03 1.081E+01 8.399E-03 1.346E+03 0.000E+00 0.000E+00 1.357E+03 1.346E+03 
1.650E-03 1.081E+01 8.436E-03 1.336E+03 0.000E+00 0.000E+00 1.347E+03 1.336E+03 
1.656E-03 1.080E+01 8.473E-03 1.325E+03 0.000E+00 0.000E+00 1.336E+03 1.325E+03 
1.663E-03 1.079E+01 8.509E-03 1.315E+03 0.000E+00 0.000E+00 1.326E+03 1.315E+03 
1.669E-03 1.079E+01 8.546E-03 1.305E+03 0.000E+00 0.000E+00 1.316E+03 1.305E+03 
1.675E-03 1.078E+01 8.583E-03 1.295E+03 0.000E+00 0.000E+00 1.305E+03 1.295E+03 
1.681E-03 1.077E+01 8.620E-03 1.285E+03 0.000E+00 0.000E+00 1.295E+03 1.285E+03 
1.687E-03 1.077E+01 8.658E-03 1.275E+03 0.000E+00 0.000E+00 1.285E+03 1.275E+03 
1.693E-03 1.076E+01 8.695E-03 1.265E+03 0.000E+00 0.000E+00 1.275E+03 1.265E+03 
1.700E-03 1.075E+01 8.732E-03 1.255E+03 0.000E+00 0.000E+00 1.266E+03 1.255E+03 
1.706E-03 1.075E+01 8.770E-03 1.245E+03 0.000E+00 0.000E+00 1.256E+03 1.245E+03 
1.712E-03 1.074E+01 8.807E-03 1.235E+03 0.000E+00 0.000E+00 1.246E+03 1.235E+03 
1.718E-03 1.073E+01 8.845E-03 1.226E+03 0.000E+00 0.000E+00 1.236E+03 1.226E+03 
1.725E-03 1.073E+01 8.883E-03 1.216E+03 0.000E+00 0.000E+00 1.227E+03 1.216E+03 
1.731E-03 1.072E+01 8.921E-03 1.206E+03 0.000E+00 0.000E+00 1.217E+03 1.206E+03 
1.737E-03 1.071E+01 8.958E-03 1.197E+03 0.000E+00 0.000E+00 1.208E+03 1.197E+03 
1.744E-03 1.071E+01 8.996E-03 1.188E+03 0.000E+00 0.000E+00 1.198E+03 1.188E+03 
1.750E-03 1.070E+01 9.035E-03 1.178E+03 0.000E+00 0.000E+00 1.189E+03 1.178E+03 
1.757E-03 1.069E+01 9.073E-03 1.169E+03 0.000E+00 0.000E+00 1.180E+03 1.169E+03 
1.763E-03 1.069E+01 9.111E-03 1.160E+03 0.000E+00 0.000E+00 1.171E+03 1.160E+03 
1.770E-03 1.068E+01 9.149E-03 1.151E+03 0.000E+00 0.000E+00 1.161E+03 1.151E+03 
1.776E-03 1.067E+01 9.188E-03 1.142E+03 0.000E+00 0.000E+00 1.152E+03 1.142E+03 
1.783E-03 1.067E+01 9.227E-03 1.133E+03 0.000E+00 0.000E+00 1.143E+03 1.133E+03 
1.789E-03 1.066E+01 9.265E-03 1.124E+03 0.000E+00 0.000E+00 1.134E+03 1.124E+03 
1.796E-03 1.065E+01 9.304E-03 1.115E+03 0.000E+00 0.000E+00 1.126E+03 1.115E+03 
1.802E-03 1.065E+01 9.343E-03 1.106E+03 0.000E+00 0.000E+00 1.117E+03 1.106E+03 
1.809E-03 1.064E+01 9.382E-03 1.097E+03 0.000E+00 0.000E+00 1.108E+03 1.097E+03 
1.809E-03 1.064E+01 9.382E-03 1.305E+03 0.000E+00 0.000E+00 1.315E+03 1.305E+03 
1.815E-03 1.063E+01 9.415E-03 1.401E+03 0.000E+00 0.000E+00 1.412E+03 1.401E+03 
1.820E-03 1.063E+01 9.449E-03 1.504E+03 0.000E+00 0.000E+00 1.515E+03 1.504E+03 
1.826E-03 1.062E+01 9.482E-03 1.615E+03 0.000E+00 0.000E+00 1.626E+03 1.615E+03 
1.832E-03 1.061E+01 9.516E-03 1.734E+03 0.000E+00 0.000E+00 1.745E+03 1.734E+03 
1.837E-03 1.061E+01 9.550E-03 1.862E+03 0.000E+00 0.000E+00 1.873E+03 1.862E+03 
1.843E-03 1.060E+01 9.584E-03 2.000E+03 0.000E+00 0.000E+00 2.010E+03 2.000E+03 
1.849E-03 1.060E+01 9.618E-03 2.147E+03 0.000E+00 0.000E+00 2.158E+03 2.147E+03 
1.854E-03 1.059E+01 9.652E-03 2.306E+03 0.000E+00 0.000E+00 2.316E+03 2.306E+03 
1.860E-03 1.058E+01 9.686E-03 2.476E+03 0.000E+00 0.000E+00 2.486E+03 2.476E+03 
1.866E-03 1.058E+01 9.721E-03 2.658E+03 0.000E+00 0.000E+00 2.669E+03 2.658E+03 
1.871E-03 1.057E+01 9.755E-03 2.854E+03 0.000E+00 0.000E+00 2.865E+03 2.854E+03 
1.872E-03 1.057E+01 9.755E-03 3.113E+03 0.000E+00 0.000E+00 3.123E+03 3.113E+03 
1.878E-03 1.056E+01 9.795E-03 3.171E+03 0.000E+00 0.000E+00 3.182E+03 3.171E+03 
1.885E-03 1.056E+01 9.834E-03 3.228E+03 0.000E+00 0.000E+00 3.239E+03 3.228E+03 
1.891E-03 1.055E+01 9.874E-03 3.284E+03 0.000E+00 0.000E+00 3.295E+03 3.284E+03 
1.898E-03 1.054E+01 9.913E-03 3.338E+03 0.000E+00 0.000E+00 3.349E+03 3.338E+03 
1.905E-03 1.053E+01 9.953E-03 3.391E+03 0.000E+00 0.000E+00 3.402E+03 3.391E+03 
1.911E-03 1.053E+01 9.993E-03 3.442E+03 0.000E+00 0.000E+00 3.453E+03 3.442E+03 
1.918E-03 1.052E+01 1.003E-02 3.492E+03 0.000E+00 0.000E+00 3.502E+03 3.492E+03 
1.925E-03 1.051E+01 1.007E-02 3.539E+03 0.000E+00 0.000E+00 3.550E+03 3.539E+03 
1.931E-03 1.051E+01 1.011E-02 3.584E+03 0.000E+00 0.000E+00 3.595E+03 3.584E+03 
1.938E-03 1.050E+01 1.015E-02 3.628E+03 0.000E+00 0.000E+00 3.638E+03 3.628E+03 
1.945E-03 1.049E+01 1.020E-02 3.669E+03 0.000E+00 0.000E+00 3.679E+03 3.669E+03 
1.952E-03 1.048E+01 1.024E-02 3.708E+03 0.000E+00 0.000E+00 3.718E+03 3.708E+03 
1.959E-03 1.048E+01 1.028E-02 3.745E+03 0.000E+00 0.000E+00 3.755E+03 3.745E+03 
1.965E-03 1.047E+01 1.032E-02 3.779E+03 0.000E+00 0.000E+00 3.789E+03 3.779E+03 
1.972E-03 1.046E+01 1.036E-02 3.810E+03 0.000E+00 0.000E+00 3.821E+03 3.810E+03 
1.979E-03 1.045E+01 1.040E-02 3.840E+03 0.000E+00 0.000E+00 3.850E+03 3.840E+03 
1.986E-03 1.045E+01 1.044E-02 3.866E+03 0.000E+00 0.000E+00 3.877E+03 3.866E+03 
1.993E-03 1.044E+01 1.048E-02 3.890E+03 0.000E+00 0.000E+00 3.901E+03 3.890E+03 
2.000E-03 1.043E+01 1.052E-02 3.911E+03 0.000E+00 0.000E+00 3.922E+03 3.911E+03 
2.007E-03 1.042E+01 1.057E-02 3.930E+03 0.000E+00 0.000E+00 3.941E+03 3.930E+03 
2.015E-03 1.041E+01 1.061E-02 3.947E+03 0.000E+00 0.000E+00 3.957E+03 3.947E+03 
2.022E-03 1.041E+01 1.066E-02 3.960E+03 0.000E+00 0.000E+00 3.970E+03 3.960E+03 
2.029E-03 1.040E+01 1.070E-02 3.969E+03 0.000E+00 0.000E+00 3.980E+03 3.969E+03 
2.037E-03 1.039E+01 1.075E-02 3.976E+03 0.000E+00 0.000E+00 3.987E+03 3.976E+03 
2.044E-03 1.038E+01 1.079E-02 3.980E+03 0.000E+00 0.000E+00 3.990E+03 3.980E+03 
2.052E-03 1.037E+01 1.083E-02 3.980E+03 0.000E+00 0.000E+00 3.991E+03 3.980E+03 
2.059E-03 1.036E+01 1.088E-02 3.977E+03 0.000E+00 0.000E+00 3.988E+03 3.977E+03 
2.067E-03 1.036E+01 1.092E-02 3.971E+03 0.000E+00 0.000E+00 3.982E+03 3.971E+03 
2.074E-03 1.035E+01 1.097E-02 3.962E+03 0.000E+00 0.000E+00 3.973E+03 3.962E+03 
2.082E-03 1.034E+01 1.101E-02 3.950E+03 0.000E+00 0.000E+00 3.960E+03 3.950E+03 
2.090E-03 1.033E+01 1.106E-02 3.934E+03 0.000E+00 0.000E+00 3.945E+03 3.934E+03 
2.097E-03 1.032E+01 1.110E-02 3.916E+03 0.000E+00 0.000E+00 3.926E+03 3.916E+03 
2.105E-03 1.031E+01 1.115E-02 3.894E+03 0.000E+00 0.000E+00 3.905E+03 3.894E+03 
2.113E-03 1.031E+01 1.120E-02 3.870E+03 0.000E+00 0.000E+00 3.880E+03 3.870E+03 
2.120E-03 1.030E+01 1.124E-02 3.843E+03 0.000E+00 0.000E+00 3.853E+03 3.843E+03 
2.128E-03 1.029E+01 1.129E-02 3.812E+03 0.000E+00 0.000E+00 3.823E+03 3.812E+03 
2.136E-03 1.028E+01 1.133E-02 3.779E+03 0.000E+00 0.000E+00 3.790E+03 3.779E+03 
2.144E-03 1.027E+01 1.138E-02 3.743E+03 0.000E+00 0.000E+00 3.754E+03 3.744E+03 
2.151E-03 1.026E+01 1.143E-02 3.705E+03 0.000E+00 0.000E+00 3.715E+03 3.705E+03 
2.159E-03 1.025E+01 1.147E-02 3.664E+03 0.000E+00 0.000E+00 3.674E+03 3.664E+03 
2.167E-03 1.024E+01 1.152E-02 3.621E+03 0.000E+00 0.000E+00 3.631E+03 3.621E+03 
2.175E-03 1.024E+01 1.157E-02 3.575E+03 0.000E+00 0.000E+00 3.585E+03 3.575E+03 
2.183E-03 1.023E+01 1.161E-02 3.527E+03 0.000E+00 0.000E+00 3.537E+03 3.527E+03 
2.191E-03 1.022E+01 1.166E-02 3.477E+03 0.000E+00 0.000E+00 3.487E+03 3.477E+03 
2.199E-03 1.021E+01 1.171E-02 3.425E+03 0.000E+00 0.000E+00 3.435E+03 3.425E+03 
2.207E-03 1.020E+01 1.176E-02 3.371E+03 0.000E+00 0.000E+00 3.381E+03 3.371E+03 
2.215E-03 1.019E+01 1.180E-02 3.315E+03 0.000E+00 0.000E+00 3.325E+03 3.315E+03 
2.223E-03 1.018E+01 1.185E-02 3.257E+03 0.000E+00 0.000E+00 3.268E+03 3.257E+03 
2.231E-03 1.017E+01 1.190E-02 3.198E+03 0.000E+00 0.000E+00 3.208E+03 3.198E+03 
2.240E-03 1.016E+01 1.195E-02 3.138E+03 0.000E+00 0.000E+00 3.148E+03 3.138E+03 
2.248E-03 1.016E+01 1.200E-02 3.076E+03 0.000E+00 0.000E+00 3.086E+03 3.076E+03 
2.256E-03 1.015E+01 1.205E-02 3.013E+03 0.000E+00 0.000E+00 3.023E+03 3.013E+03 
2.264E-03 1.014E+01 1.209E-02 2.949E+03 0.000E+00 0.000E+00 2.959E+03 2.949E+03 
2.273E-03 1.013E+01 1.214E-02 2.884E+03 0.000E+00 0.000E+00 2.894E+03 2.884E+03 
2.281E-03 1.012E+01 1.219E-02 2.818E+03 0.000E+00 0.000E+00 2.828E+03 2.818E+03 
2.281E-03 1.012E+01 1.219E-02 3.270E+03 0.000E+00 0.000E+00 3.280E+03 3.270E+03 
2.289E-03 1.011E+01 1.224E-02 3.240E+03 0.000E+00 0.000E+00 3.251E+03 3.241E+03 
2.298E-03 1.010E+01 1.229E-02 3.212E+03 0.000E+00 0.000E+00 3.222E+03 3.212E+03 
2.306E-03 1.009E+01 1.234E-02 3.183E+03 0.000E+00 0.000E+00 3.193E+03 3.183E+03 
2.315E-03 1.008E+01 1.239E-02 3.155E+03 0.000E+00 0.000E+00 3.165E+03 3.155E+03 
2.323E-03 1.007E+01 1.244E-02 3.127E+03 0.000E+00 0.000E+00 3.137E+03 3.127E+03 
2.332E-03 1.006E+01 1.248E-02 3.099E+03 0.000E+00 0.000E+00 3.109E+03 3.099E+03 
2.340E-03 1.005E+01 1.253E-02 3.072E+03 0.000E+00 0.000E+00 3.082E+03 3.072E+03 
2.349E-03 1.004E+01 1.258E-02 3.044E+03 0.000E+00 0.000E+00 3.054E+03 3.044E+03 
2.358E-03 1.004E+01 1.263E-02 3.017E+03 0.000E+00 0.000E+00 3.027E+03 3.017E+03 
2.366E-03 1.003E+01 1.268E-02 2.991E+03 0.000E+00 0.000E+00 3.001E+03 2.991E+03 
2.375E-03 1.002E+01 1.273E-02 2.964E+03 0.000E+00 0.000E+00 2.974E+03 2.964E+03 
2.384E-03 1.001E+01 1.278E-02 2.938E+03 0.000E+00 0.000E+00 2.948E+03 2.938E+03 
2.393E-03 9.999E+00 1.283E-02 2.912E+03 0.000E+00 0.000E+00 2.922E+03 2.912E+03 
2.401E-03 9.990E+00 1.288E-02 2.886E+03 0.000E+00 0.000E+00 2.896E+03 2.886E+03 
2.410E-03 9.981E+00 1.293E-02 2.860E+03 0.000E+00 0.000E+00 2.870E+03 2.860E+03 
2.419E-03 9.972E+00 1.299E-02 2.835E+03 0.000E+00 0.000E+00 2.845E+03 2.835E+03 
2.428E-03 9.962E+00 1.304E-02 2.810E+03 0.000E+00 0.000E+00 2.819E+03 2.810E+03 
2.437E-03 9.953E+00 1.309E-02 2.785E+03 0.000E+00 0.000E+00 2.795E+03 2.785E+03 
2.446E-03 9.944E+00 1.314E-02 2.760E+03 0.000E+00 0.000E+00 2.770E+03 2.760E+03 
2.455E-03 9.935E+00 1.319E-02 2.735E+03 0.000E+00 0.000E+00 2.745E+03 2.735E+03 
2.464E-03 9.926E+00 1.324E-02 2.711E+03 0.000E+00 0.000E+00 2.721E+03 2.711E+03 
2.473E-03 9.917E+00 1.330E-02 2.687E+03 0.000E+00 0.000E+00 2.697E+03 2.687E+03 
2.482E-03 9.908E+00 1.335E-02 2.663E+03 0.000E+00 0.000E+00 2.673E+03 2.663E+03 
2.491E-03 9.899E+00 1.340E-02 2.639E+03 0.000E+00 0.000E+00 2.649E+03 2.639E+03 
2.500E-03 9.890E+00 1.345E-02 2.616E+03 0.000E+00 0.000E+00 2.626E+03 2.616E+03 
2.509E-03 9.881E+00 1.351E-02 2.593E+03 0.000E+00 0.000E+00 2.603E+03 2.593E+03 
2.519E-03 9.872E+00 1.356E-02 2.570E+03 0.000E+00 0.000E+00 2.580E+03 2.570E+03 
2.528E-03 9.863E+00 1.361E-02 2.547E+03 0.000E+00 0.000E+00 2.557E+03 2.547E+03 
2.537E-03 9.853E+00 1.367E-02 2.524E+03 0.000E+00 0.000E+00 2.534E+03 2.524E+03 
2.547E-03 9.844E+00 1.372E-02 2.502E+03 0.000E+00 0.000E+00 2.512E+03 2.502E+03 
2.556E-03 9.835E+00 1.378E-02 2.480E+03 0.000E+00 0.000E+00 2.490E+03 2.480E+03 
2.565E-03 9.826E+00 1.383E-02 2.458E+03 0.000E+00 0.000E+00 2.468E+03 2.458E+03 
2.575E-03 9.817E+00 1.389E-02 2.436E+03 0.000E+00 0.000E+00 2.446E+03 2.436E+03 
2.575E-03 9.817E+00 1.389E-02 2.589E+03 0.000E+00 0.000E+00 2.599E+03 2.589E+03 
2.584E-03 9.807E+00 1.394E-02 2.567E+03 0.000E+00 0.000E+00 2.577E+03 2.567E+03 
2.594E-03 9.796E+00 1.399E-02 2.546E+03 0.000E+00 0.000E+00 2.555E+03 2.546E+03 
2.603E-03 9.786E+00 1.405E-02 2.524E+03 0.000E+00 0.000E+00 2.534E+03 2.524E+03 
2.613E-03 9.775E+00 1.410E-02 2.503E+03 0.000E+00 0.000E+00 2.513E+03 2.503E+03 
2.622E-03 9.764E+00 1.416E-02 2.482E+03 0.000E+00 0.000E+00 2.491E+03 2.482E+03 
2.632E-03 9.754E+00 1.421E-02 2.461E+03 0.000E+00 0.000E+00 2.470E+03 2.461E+03 
2.641E-03 9.743E+00 1.427E-02 2.440E+03 0.000E+00 0.000E+00 2.450E+03 2.440E+03 
2.651E-03 9.733E+00 1.432E-02 2.419E+03 0.000E+00 0.000E+00 2.429E+03 2.419E+03 
2.660E-03 9.722E+00 1.438E-02 2.399E+03 0.000E+00 0.000E+00 2.408E+03 2.399E+03 
2.670E-03 9.712E+00 1.443E-02 2.378E+03 0.000E+00 0.000E+00 2.388E+03 2.379E+03 
2.680E-03 9.701E+00 1.449E-02 2.358E+03 0.000E+00 0.000E+00 2.368E+03 2.358E+03 
2.690E-03 9.691E+00 1.455E-02 2.338E+03 0.000E+00 0.000E+00 2.348E+03 2.338E+03 
2.699E-03 9.680E+00 1.460E-02 2.319E+03 0.000E+00 0.000E+00 2.328E+03 2.319E+03 
2.709E-03 9.670E+00 1.466E-02 2.299E+03 0.000E+00 0.000E+00 2.309E+03 2.299E+03 
2.719E-03 9.659E+00 1.471E-02 2.280E+03 0.000E+00 0.000E+00 2.289E+03 2.280E+03 
2.729E-03 9.649E+00 1.477E-02 2.260E+03 0.000E+00 0.000E+00 2.270E+03 2.260E+03 
2.739E-03 9.638E+00 1.483E-02 2.241E+03 0.000E+00 0.000E+00 2.251E+03 2.241E+03 
2.749E-03 9.628E+00 1.489E-02 2.222E+03 0.000E+00 0.000E+00 2.232E+03 2.222E+03 
2.759E-03 9.618E+00 1.494E-02 2.204E+03 0.000E+00 0.000E+00 2.213E+03 2.204E+03 
2.769E-03 9.607E+00 1.500E-02 2.185E+03 0.000E+00 0.000E+00 2.195E+03 2.185E+03 
2.779E-03 9.597E+00 1.506E-02 2.166E+03 0.000E+00 0.000E+00 2.176E+03 2.167E+03 
2.789E-03 9.586E+00 1.512E-02 2.148E+03 0.000E+00 0.000E+00 2.158E+03 2.148E+03 
2.799E-03 9.576E+00 1.518E-02 2.130E+03 0.000E+00 0.000E+00 2.140E+03 2.130E+03 
2.809E-03 9.566E+00 1.524E-02 2.112E+03 0.000E+00 0.000E+00 2.122E+03 2.112E+03 
2.819E-03 9.555E+00 1.529E-02 2.094E+03 0.000E+00 0.000E+00 2.104E+03 2.094E+03 
2.820E-03 9.555E+00 1.529E-02 2.185E+03 0.000E+00 0.000E+00 2.194E+03 2.185E+03 
2.830E-03 9.544E+00 1.535E-02 2.166E+03 0.000E+00 0.000E+00 2.176E+03 2.166E+03 
2.840E-03 9.533E+00 1.541E-02 2.148E+03 0.000E+00 0.000E+00 2.158E+03 2.148E+03 
2.851E-03 9.522E+00 1.547E-02 2.130E+03 0.000E+00 0.000E+00 2.140E+03 2.130E+03 
2.861E-03 9.510E+00 1.553E-02 2.113E+03 0.000E+00 0.000E+00 2.122E+03 2.113E+03 
2.872E-03 9.499E+00 1.559E-02 2.095E+03 0.000E+00 0.000E+00 2.104E+03 2.095E+03 
2.882E-03 9.488E+00 1.565E-02 2.077E+03 0.000E+00 0.000E+00 2.087E+03 2.077E+03 
2.893E-03 9.477E+00 1.571E-02 2.060E+03 0.000E+00 0.000E+00 2.069E+03 2.060E+03 
2.903E-03 9.465E+00 1.577E-02 2.043E+03 0.000E+00 0.000E+00 2.052E+03 2.043E+03 
2.914E-03 9.454E+00 1.583E-02 2.026E+03 0.000E+00 0.000E+00 2.035E+03 2.026E+03 
2.924E-03 9.442E+00 1.589E-02 2.009E+03 0.000E+00 0.000E+00 2.018E+03 2.009E+03 
2.935E-03 9.431E+00 1.596E-02 1.992E+03 0.000E+00 0.000E+00 2.001E+03 1.992E+03 
2.946E-03 9.420E+00 1.602E-02 1.975E+03 0.000E+00 0.000E+00 1.984E+03 1.975E+03 
2.957E-03 9.408E+00 1.608E-02 1.958E+03 0.000E+00 0.000E+00 1.968E+03 1.958E+03 
2.967E-03 9.397E+00 1.614E-02 1.942E+03 0.000E+00 0.000E+00 1.951E+03 1.942E+03 
2.978E-03 9.385E+00 1.620E-02 1.925E+03 0.000E+00 0.000E+00 1.935E+03 1.925E+03 
2.989E-03 9.374E+00 1.626E-02 1.909E+03 0.000E+00 0.000E+00 1.918E+03 1.909E+03 
3.000E-03 9.362E+00 1.633E-02 1.893E+03 0.000E+00 0.000E+00 1.902E+03 1.893E+03 
3.011E-03 9.351E+00 1.639E-02 1.877E+03 0.000E+00 0.000E+00 1.886E+03 1.877E+03 
3.022E-03 9.339E+00 1.645E-02 1.861E+03 0.000E+00 0.000E+00 1.870E+03 1.861E+03 
3.033E-03 9.327E+00 1.651E-02 1.845E+03 0.000E+00 0.000E+00 1.854E+03 1.845E+03 
3.044E-03 9.316E+00 1.658E-02 1.829E+03 0.000E+00 0.000E+00 1.839E+03 1.829E+03 
3.055E-03 9.304E+00 1.664E-02 1.814E+03 0.000E+00 0.000E+00 1.823E+03 1.814E+03 
3.066E-03 9.292E+00 1.670E-02 1.798E+03 0.000E+00 0.000E+00 1.808E+03 1.798E+03 
3.077E-03 9.281E+00 1.677E-02 1.783E+03 0.000E+00 0.000E+00 1.792E+03 1.783E+03 
3.089E-03 9.269E+00 1.683E-02 1.768E+03 0.000E+00 0.000E+00 1.777E+03 1.768E+03 
3.100E-03 9.257E+00 1.689E-02 1.753E+03 0.000E+00 0.000E+00 1.762E+03 1.753E+03 
3.111E-03 9.245E+00 1.696E-02 1.738E+03 0.000E+00 0.000E+00 1.747E+03 1.738E+03 
3.123E-03 9.234E+00 1.702E-02 1.723E+03 0.000E+00 0.000E+00 1.732E+03 1.723E+03 
3.134E-03 9.222E+00 1.709E-02 1.708E+03 0.000E+00 0.000E+00 1.717E+03 1.708E+03 
3.145E-03 9.210E+00 1.715E-02 1.694E+03 0.000E+00 0.000E+00 1.703E+03 1.694E+03 
3.157E-03 9.198E+00 1.722E-02 1.679E+03 0.000E+00 0.000E+00 1.688E+03 1.679E+03 
3.168E-03 9.186E+00 1.728E-02 1.665E+03 0.000E+00 0.000E+00 1.674E+03 1.665E+03 
3.180E-03 9.174E+00 1.735E-02 1.650E+03 0.000E+00 0.000E+00 1.660E+03 1.650E+03 
3.192E-03 9.162E+00 1.741E-02 1.636E+03 0.000E+00 0.000E+00 1.645E+03 1.636E+03 
3.203E-03 9.150E+00 1.748E-02 1.622E+03 0.000E+00 0.000E+00 1.631E+03 1.622E+03 
3.215E-03 9.138E+00 1.754E-02 1.608E+03 0.000E+00 0.000E+00 1.617E+03 1.608E+03 
3.227E-03 9.126E+00 1.761E-02 1.594E+03 0.000E+00 0.000E+00 1.604E+03 1.594E+03 
3.238E-03 9.114E+00 1.767E-02 1.581E+03 0.000E+00 0.000E+00 1.590E+03 1.581E+03 
3.250E-03 9.102E+00 1.774E-02 1.567E+03 0.000E+00 0.000E+00 1.576E+03 1.567E+03 
3.262E-03 9.090E+00 1.781E-02 1.553E+03 0.000E+00 0.000E+00 1.563E+03 1.553E+03 
3.274E-03 9.078E+00 1.787E-02 1.540E+03 0.000E+00 0.000E+00 1.549E+03 1.540E+03 
3.286E-03 9.066E+00 1.794E-02 1.527E+03 0.000E+00 0.000E+00 1.536E+03 1.527E+03 
3.298E-03 9.054E+00 1.801E-02 1.514E+03 0.000E+00 0.000E+00 1.523E+03 1.514E+03 
3.310E-03 9.042E+00 1.808E-02 1.500E+03 0.000E+00 0.000E+00 1.509E+03 1.500E+03 
3.322E-03 9.029E+00 1.814E-02 1.487E+03 0.000E+00 0.000E+00 1.496E+03 1.487E+03 
3.334E-03 9.017E+00 1.821E-02 1.475E+03 0.000E+00 0.000E+00 1.484E+03 1.475E+03 
3.346E-03 9.005E+00 1.828E-02 1.462E+03 0.000E+00 0.000E+00 1.471E+03 1.462E+03 
3.359E-03 8.993E+00 1.835E-02 1.449E+03 0.000E+00 0.000E+00 1.458E+03 1.449E+03 
3.371E-03 8.980E+00 1.842E-02 1.436E+03 0.000E+00 0.000E+00 1.445E+03 1.436E+03 
3.383E-03 8.968E+00 1.848E-02 1.424E+03 0.000E+00 0.000E+00 1.433E+03 1.424E+03 
3.395E-03 8.955E+00 1.855E-02 1.412E+03 0.000E+00 0.000E+00 1.421E+03 1.412E+03 
3.408E-03 8.943E+00 1.862E-02 1.399E+03 0.000E+00 0.000E+00 1.408E+03 1.399E+03 
3.420E-03 8.931E+00 1.869E-02 1.387E+03 0.000E+00 0.000E+00 1.396E+03 1.387E+03 
3.433E-03 8.918E+00 1.876E-02 1.375E+03 0.000E+00 0.000E+00 1.384E+03 1.375E+03 
3.445E-03 8.906E+00 1.883E-02 1.363E+03 0.000E+00 0.000E+00 1.372E+03 1.363E+03 
3.458E-03 8.893E+00 1.890E-02 1.351E+03 0.000E+00 0.000E+00 1.360E+03 1.351E+03 
3.470E-03 8.881E+00 1.897E-02 1.339E+03 0.000E+00 0.000E+00 1.348E+03 1.339E+03 
3.483E-03 8.868E+00 1.904E-02 1.328E+03 0.000E+00 0.000E+00 1.337E+03 1.328E+03 
3.496E-03 8.855E+00 1.911E-02 1.316E+03 0.000E+00 0.000E+00 1.325E+03 1.316E+03 
3.509E-03 8.843E+00 1.918E-02 1.304E+03 0.000E+00 0.000E+00 1.313E+03 1.305E+03 
3.521E-03 8.830E+00 1.925E-02 1.293E+03 0.000E+00 0.000E+00 1.302E+03 1.293E+03 
3.534E-03 8.817E+00 1.932E-02 1.282E+03 0.000E+00 0.000E+00 1.291E+03 1.282E+03 
3.547E-03 8.805E+00 1.939E-02 1.271E+03 0.000E+00 0.000E+00 1.279E+03 1.271E+03 
3.560E-03 8.792E+00 1.947E-02 1.259E+03 0.000E+00 0.000E+00 1.268E+03 1.259E+03 
3.573E-03 8.779E+00 1.954E-02 1.248E+03 0.000E+00 0.000E+00 1.257E+03 1.248E+03 
3.586E-03 8.766E+00 1.961E-02 1.237E+03 0.000E+00 0.000E+00 1.246E+03 1.237E+03 
3.599E-03 8.754E+00 1.968E-02 1.226E+03 0.000E+00 0.000E+00 1.235E+03 1.227E+03 
3.612E-03 8.741E+00 1.975E-02 1.216E+03 0.000E+00 0.000E+00 1.224E+03 1.216E+03 
3.625E-03 8.728E+00 1.983E-02 1.205E+03 0.000E+00 0.000E+00 1.214E+03 1.205E+03 
3.639E-03 8.715E+00 1.990E-02 1.194E+03 0.000E+00 0.000E+00 1.203E+03 1.194E+03 
3.652E-03 8.702E+00 1.997E-02 1.184E+03 0.000E+00 0.000E+00 1.193E+03 1.184E+03 
3.665E-03 8.689E+00 2.004E-02 1.173E+03 0.000E+00 0.000E+00 1.182E+03 1.174E+03 
3.679E-03 8.676E+00 2.012E-02 1.163E+03 0.000E+00 0.000E+00 1.172E+03 1.163E+03 
3.692E-03 8.663E+00 2.019E-02 1.153E+03 0.000E+00 0.000E+00 1.162E+03 1.153E+03 
3.706E-03 8.650E+00 2.027E-02 1.143E+03 0.000E+00 0.000E+00 1.151E+03 1.143E+03 
3.719E-03 8.637E+00 2.034E-02 1.133E+03 0.000E+00 0.000E+00 1.141E+03 1.133E+03 
